"Time (s)","Acceleration x (m/s^2)","Acceleration y (m/s^2)","Acceleration z (m/s^2)","Absolute acceleration (m/s^2)"
1.809071100E-2,3.511467278E-1,1.566700578E0,4.317250252E0,4.606137695E0
2.024235600E-2,3.846462369E-1,1.504487276E0,4.279563427E0,4.552592428E0
2.239473900E-2,4.175475538E-1,1.456630826E0,4.337589264E0,4.594649056E0
2.454701000E-2,4.893322289E-1,1.380658627E0,4.476971149E0,4.710513236E0
2.669905300E-2,6.227321029E-1,1.342971683E0,4.650450706E0,4.880374984E0
2.885121700E-2,9.900303483E-1,1.301097274E0,4.911866665E0,5.176818361E0
3.100311200E-2,1.185643673E0,1.196411371E0,5.090730190E0,5.362153015E0
3.316596900E-2,1.176072359E0,1.009172916E0,5.014758110E0,5.248749858E0
3.535778200E-2,1.219143152E0,8.368897438E-1,4.977669239E0,5.192676143E0
3.754538400E-2,1.309472203E0,6.735795736E-1,4.916652203E0,5.132435657E0
3.976999300E-2,1.453041553E0,5.485545993E-1,4.784449100E0,5.030228136E0
4.195277400E-2,1.591227055E0,4.468596280E-1,4.622933388E0,4.909501011E0
4.415163600E-2,1.792224169E0,3.308077157E-1,4.424329281E0,4.784996426E0
4.633838300E-2,2.002792597E0,2.243271172E-1,4.215555191E0,4.672516068E0
4.853726600E-2,2.227119684E0,1.316052526E-1,3.993022680E0,4.574014884E0
5.073394100E-2,2.509472847E0,5.862415582E-2,3.808775425E0,4.561541516E0
5.293093200E-2,2.824727058E0,-4.785645287E-3,3.677768469E0,4.637357736E0
5.512670300E-2,3.202194929E0,-6.400800496E-2,3.518047571E0,4.757605291E0
5.731672600E-2,3.555734396E0,-1.082752272E-1,3.454039574E0,4.958362633E0
5.949523300E-2,3.942773581E0,-1.519442350E-1,3.409173965E0,5.214500713E0
6.171521400E-2,4.377668858E0,-2.291127741E-1,3.451048374E0,5.579087037E0
6.390387400E-2,4.855635166E0,-3.014956415E-1,3.546163082E0,6.020246265E0
6.608753900E-2,5.347360611E0,-3.828516304E-1,3.678964853E0,6.501970722E0
6.830240200E-2,5.848656654E0,-4.833501875E-1,3.826721668E0,7.006012474E0
7.049409300E-2,6.354738712E0,-5.934200287E-1,3.969692707E0,7.516203272E0
7.268276400E-2,6.875775814E0,-7.184450030E-1,4.022335052E0,7.998227025E0
7.489110700E-2,7.410571575E0,-8.578268886E-1,4.070191383E0,8.498170152E0
7.708163900E-2,7.897511005E0,-1.015753269E0,4.313661098E0,9.055943179E0
7.926269900E-2,8.283951759E0,-1.171884894E0,4.719244480E0,9.605646226E0
8.147865200E-2,8.593822479E0,-1.357328653E0,5.076373100E0,1.007301791E1
8.367432000E-2,8.870193481E0,-1.557129383E0,5.352146149E0,1.047618503E1
8.587688600E-2,9.123234749E0,-1.781456470E0,5.569892883E0,1.083654494E1
8.806669600E-2,9.289535522E0,-2.033899307E0,5.739783287E0,1.110753478E1
9.025672900E-2,9.533005714E0,-2.287538528E0,5.781059742E0,1.138119863E1
9.243356700E-2,9.642477036E0,-2.580060959E0,5.711069584E0,1.150001712E1
9.465652900E-2,9.570692062E0,-2.876770973E0,5.578267574E0,1.144513114E1
9.685219800E-2,9.369695663E0,-3.145365477E0,5.434100151E0,1.127891685E1
9.905349100E-2,9.092127800E0,-3.379263878E0,5.380261898E0,1.109204356E1
1.012428720E-1,8.737990379E0,-3.627519131E0,5.392824173E0,1.089008372E1
1.034323770E-1,8.350951195E0,-3.841676712E0,5.410171986E0,1.066615332E1
1.056106310E-1,7.944170952E0,-4.012763500E0,5.398207664E0,1.040926362E1
1.078315360E-1,7.590631485E0,-4.127619267E0,5.295316696E0,1.013386925E1
1.100238380E-1,7.337590694E0,-4.161716938E0,5.059025288E0,9.836354098E0
1.122146040E-1,7.290332317E0,-4.059423447E0,4.465006828E0,9.463833789E0
1.144204250E-1,7.468597889E0,-3.864408493E0,3.437289715E0,9.084523543E0
1.166155440E-1,7.392625332E0,-3.811168194E0,3.517449379E0,9.030413193E0
1.188153530E-1,7.229315281E0,-3.851248026E0,4.119244099E0,9.168603096E0
1.210069010E-1,7.003791809E0,-3.850649834E0,5.041079044E0,9.449501668E0
1.232090690E-1,6.720840454E0,-3.726821184E0,5.717649937E0,9.578643607E0
1.254272090E-1,6.339185238E0,-3.497708559E0,5.484349728E0,9.082803894E0
1.275913450E-1,6.000600815E0,-3.317648649E0,5.026721954E0,8.501878399E0
1.298053930E-1,5.761917114E0,-3.256033421E0,4.938187599E0,8.257550438E0
1.320010420E-1,5.661418438E0,-3.259024382E0,5.248656273E0,8.379814516E0
1.341899250E-1,5.823532104E0,-3.329612732E0,5.426921844E0,8.628518287E0
1.363742620E-1,6.306283951E0,-3.601796389E0,4.781457901E0,8.695084482E0
1.385545190E-1,6.914061069E0,-3.769891977E0,3.963710785E0,8.816310406E0
1.407715180E-1,7.478168964E0,-3.844667673E0,3.595216036E0,9.144947180E0
1.429677070E-1,8.018348694E0,-3.903291941E0,3.537189960E0,9.593816580E0
1.451691840E-1,8.519644737E0,-3.961317778E0,3.603590965E0,1.006291473E1
1.473614540E-1,9.002396584E0,-3.975674868E0,3.760320902E0,1.053513874E1
1.495571020E-1,9.474979401E0,-3.966701746E0,3.830909014E0,1.096292941E1
1.517518350E-1,9.986445427E0,-3.861417532E0,3.982254982E0,1.142357179E1
1.539476370E-1,1.051226807E1,-3.621536970E0,4.406383038E0,1.195991310E1
1.561440570E-1,1.096570778E1,-3.317648649E0,5.064409256E0,1.252604410E1
1.583340900E-1,1.134317589E1,-3.008974552E0,5.682953835E0,1.303907709E1
1.605108690E-1,1.167278671E1,-2.629113913E0,6.233901024E0,1.349176458E1
1.627322840E-1,1.197428226E1,-2.154138565E0,6.602993965E0,1.384280600E1
1.649294880E-1,1.219442272E1,-1.545763373E0,6.912864685E0,1.410251850E1
1.671314030E-1,1.240080357E1,-8.811569214E-1,6.959524632E0,1.424750328E1
1.693142030E-1,1.258325577E1,-2.117647976E-1,7.015756130E0,1.440846987E1
1.714843690E-1,1.271785259E1,3.960121572E-1,7.200601578E0,1.462016632E1
1.736861920E-1,1.281416321E1,9.960124493E-1,7.619943619E0,1.494183256E1
1.759079940E-1,1.280937767E1,1.620539188E0,8.143373489E0,1.526501999E1
1.781106310E-1,1.278126240E1,2.109273195E0,8.361120224E0,1.541810732E1
1.803069490E-1,1.281057453E1,2.430509567E0,8.536993027E0,1.558519960E1
1.824988130E-1,1.282014561E1,2.714657307E0,8.899505615E0,1.584066595E1
1.846937910E-1,1.282014561E1,2.916850805E0,9.152546883E0,1.601977735E1
1.868886260E-1,1.277707481E1,3.103491068E0,9.151350021E0,1.601975358E1
1.890839890E-1,1.274357510E1,3.324826956E0,9.394221306E0,1.617728576E1
1.912739400E-1,1.275314617E1,3.449851990E0,9.604191780E0,1.633354572E1
1.934510740E-1,1.275793171E1,3.538386583E0,9.976874352E0,1.657778703E1
1.956722850E-1,1.279561901E1,3.601198196E0,1.017787075E1,1.674173072E1
1.978623600E-1,1.286261845E1,3.644867182E0,1.036510944E1,1.691648616E1
2.000469710E-1,1.293440247E1,3.727419376E0,1.055653572E1,1.710651539E1
2.022562000E-1,1.301516056E1,3.814159393E0,1.075274658E1,1.730791077E1
2.044270570E-1,1.314437294E1,3.929612875E0,1.091127110E1,1.752918236E1
2.066555460E-1,1.345065403E1,4.202394962E0,1.103689480E1,1.789953251E1
2.088435920E-1,1.376590824E1,4.153940201E0,1.108235836E1,1.815417626E1
2.110333910E-1,1.413380527E1,4.100699902E0,1.109492016E1,1.843034033E1
2.132355490E-1,1.460160160E1,4.013959885E0,1.107996559E1,1.876390899E1
2.154372390E-1,1.521356678E1,3.873979807E0,1.106620693E1,1.920732333E1
2.176342300E-1,1.590628815E1,3.724428415E0,1.105723381E1,1.972672779E1
2.198302850E-1,1.668934059E1,3.617349625E0,1.102552891E1,2.032686880E1
2.220249270E-1,1.752563095E1,3.563511133E0,1.105125141E1,2.102323737E1
2.242198530E-1,1.837627983E1,3.580859184E0,1.108175945E1,2.175581774E1
2.264141790E-1,1.917428589E1,3.632902861E0,1.123071289E1,2.251621937E1
2.286128270E-1,1.992922211E1,3.714258909E0,1.147537899E1,2.329493370E1
2.308023010E-1,2.059801483E1,3.814757586E0,1.173858929E1,2.401301874E1
2.329803200E-1,2.123331070E1,3.996612072E0,1.199163055E1,2.471083962E1
2.352026620E-1,2.188356018E1,4.311866283E0,1.219143105E1,2.541876055E1
2.373923070E-1,2.249612236E1,4.713262558E0,1.232363510E1,2.607992230E1
2.395750470E-1,2.311765862E1,5.185844898E0,1.246002579E1,2.676885074E1
2.417888840E-1,2.376312256E1,5.716453075E0,1.260598755E1,2.750045003E1
2.439850710E-1,2.439004135E1,6.261418819E0,1.279561901E1,2.824548369E1
2.461876660E-1,2.494038963E1,6.850052834E0,1.306959724E1,2.897862369E1
2.483772520E-1,2.544228554E1,7.467401028E0,1.337228966E1,2.969663453E1
2.505741320E-1,2.587299347E1,8.209774017E0,1.375992680E1,3.043267596E1
2.527727500E-1,2.621337128E1,9.048459053E0,1.418525124E1,3.114862433E1
2.549672990E-1,2.640001297E1,9.815957069E0,1.471885014E1,3.177984027E1
2.571590510E-1,2.647239494E1,1.054516983E1,1.518066502E1,3.228685322E1
2.593458600E-1,2.641556549E1,1.114457130E1,1.556052589E1,3.262075315E1
2.615530530E-1,2.628695107E1,1.174935722E1,1.591107464E1,3.289701335E1
2.637498110E-1,2.601058006E1,1.226321602E1,1.622752571E1,3.301922672E1
2.659483990E-1,2.556192589E1,1.278664589E1,1.649911118E1,3.300198536E1
2.681419720E-1,2.496970177E1,1.325324631E1,1.680359650E1,3.288609735E1
2.703393190E-1,2.425305176E1,1.357627773E1,1.703151321E1,3.259751952E1
2.725362900E-1,2.341676140E1,1.381316662E1,1.719123459E1,3.216654836E1
2.747296190E-1,2.245125580E1,1.370010567E1,1.722293854E1,3.143853359E1
2.769190510E-1,2.138525391E1,1.337707520E1,1.721157265E1,3.053708333E1
2.790957480E-1,2.033839417E1,1.309173107E1,1.717568016E1,2.966559773E1
2.813183030E-1,1.926282120E1,1.277288723E1,1.707338715E1,2.873505659E1
2.835141240E-1,1.819203186E1,1.240558910E1,1.683709717E1,2.771888355E1
2.857167290E-1,1.702134323E1,1.196590805E1,1.646680641E1,2.653421931E1
2.879074040E-1,1.576870155E1,1.158365440E1,1.603789330E1,2.529915057E1
2.901053910E-1,1.456511116E1,1.136231804E1,1.543609905E1,2.407317778E1
2.923074180E-1,1.343330669E1,1.129352474E1,1.467697620E1,2.287817869E1
2.944941550E-1,1.229671574E1,1.107159042E1,1.386042500E1,2.158473334E1
2.966902100E-1,1.120259762E1,1.077727318E1,1.296371460E1,2.024118837E1
2.988838650E-1,1.014257717E1,1.050209904E1,1.208076286E1,1.895021866E1
3.010820550E-1,9.091529846E0,1.022692394E1,1.118405342E1,1.767283054E1
3.032722510E-1,8.108079910E0,9.994820595E0,1.032144070E1,1.649756154E1
3.054499660E-1,7.157530785E0,9.777072906E0,9.516255379E0,1.540715801E1
3.076714830E-1,6.283552170E0,9.588040352E0,8.744570732E0,1.441808111E1
3.098663160E-1,5.471786976E0,9.437891006E0,8.069195747E0,1.356930947E1
3.120681800E-1,4.770092010E0,9.326025963E0,7.423133850E0,1.283867027E1
3.142579390E-1,4.096512318E0,9.223732948E0,6.801598549E0,1.217047269E1
3.164545130E-1,3.475574970E0,9.107083321E0,6.275775433E0,1.159327155E1
3.186509140E-1,2.878565550E0,8.982057571E0,5.816951752E0,1.108153534E1
3.208473250E-1,2.338984251E0,8.832506180E0,5.392824173E0,1.060973917E1
3.230386910E-1,1.841875196E0,8.673981667E0,5.107480049E0,1.023312341E1
3.252141870E-1,1.369292736E0,8.535198212E0,4.850849628E0,9.912381814E0
3.274349200E-1,9.152546525E-1,8.381459236E0,4.637290478E0,9.622422407E0
3.296303950E-1,4.851447940E-1,8.228917122E0,4.515256405E0,9.398828803E0
3.318333480E-1,7.836493850E-2,8.066802979E0,4.474578381E0,9.225036750E0
3.340226480E-1,-3.134597540E-1,7.914260864E0,4.405186653E0,9.063081788E0
3.362149500E-1,-6.717849374E-1,7.780860901E0,4.398007870E0,8.963010911E0
3.383987880E-1,-1.054636598E0,7.643273830E0,4.429114819E0,8.896569635E0
3.406122580E-1,-1.384247899E0,7.500302792E0,4.470390797E0,8.840536075E0
3.428077130E-1,-1.728814363E0,7.372286797E0,4.497310162E0,8.807111354E0
3.450070430E-1,-2.039881229E0,7.253243446E0,4.557728767E0,8.805881412E0
3.471989890E-1,-2.359921217E0,7.153941631E0,4.617549419E0,8.835715684E0
3.493948510E-1,-2.651845694E0,7.063612461E0,4.620540619E0,8.847389569E0
3.515909470E-1,-2.924029350E0,6.992425919E0,4.628317356E0,8.880613122E0
3.537870020E-1,-3.168097258E0,6.969096184E0,4.650450706E0,8.957222428E0
3.559831890E-1,-3.406781197E0,6.912266254E0,4.630111694E0,8.990190053E0
3.581755510E-1,-3.569493294E0,6.878767014E0,4.609772682E0,9.017134921E0
3.603572130E-1,-3.717848301E0,6.865008354E0,4.613361835E0,9.068287772E0
3.625717000E-1,-3.822534084E0,6.855436802E0,4.622334957E0,9.109048305E0
3.647605620E-1,-3.913461447E0,6.831508636E0,4.564309120E0,9.100418039E0
3.669430070E-1,-3.970889091E0,6.807580471E0,4.530211449E0,9.090320556E0
3.691645650E-1,-3.999603033E0,6.763911247E0,4.439284325E0,9.025218285E0
3.713809960E-1,-4.033102512E0,6.720840454E0,4.353142738E0,8.965794108E0
3.735446140E-1,-4.018745422E0,6.677171707E0,4.281956196E0,8.892136169E0
3.757661890E-1,-4.009174347E0,6.634100914E0,4.238885403E0,8.834756552E0
3.779564970E-1,-3.994817495E0,6.600003242E0,4.186841488E0,8.777713328E0
3.801460830E-1,-3.980460405E0,6.542575359E0,4.105485439E0,8.689324949E0
3.823353310E-1,-3.946960926E0,6.527021885E0,3.976871252E0,8.602093942E0
3.845309900E-1,-3.884747505E0,6.497709751E0,3.829114437E0,8.483726337E0
3.867271060E-1,-3.822534084E0,6.458228111E0,3.633501291E0,8.338033869E0
3.889232620E-1,-3.764508247E0,6.428318024E0,3.370888948E0,8.176655017E0
3.911143540E-1,-3.649652719E0,6.416952133E0,3.132802963E0,8.019457217E0
3.932926270E-1,-3.573082447E0,6.401398659E0,2.946761131E0,7.901153342E0
3.955131890E-1,-3.482155085E0,6.376274109E0,2.693720102E0,7.748445233E0
3.977078390E-1,-3.386442184E0,6.369693756E0,2.412563324E0,7.606671480E0
3.999096720E-1,-3.280559778E0,6.358926296E0,2.169093609E0,7.476829755E0
4.020994300E-1,-3.180061340E0,6.352345943E0,1.925624013E0,7.360238920E0
4.042897280E-1,-3.074777126E0,6.403791428E0,1.716252089E0,7.308099634E0
4.064664550E-1,-2.935993433E0,6.445665836E0,1.558923960E0,7.252372676E0
4.086882160E-1,-2.821137905E0,6.492924213E0,1.435095429E0,7.223322145E0
4.108852480E-1,-2.691925526E0,6.539584160E0,1.316650629E0,7.193482668E0
4.130879460E-1,-2.548356056E0,6.582056999E0,1.221535921E0,7.163081944E0
4.152760560E-1,-2.395215511E0,6.609574318E0,1.117448211E0,7.118442281E0
4.174717450E-1,-2.227717876E0,6.647261143E0,1.051645517E0,7.089059594E0
4.196676780E-1,-2.060818434E0,6.656234264E0,1.014556766E0,7.041431149E0
4.218642210E-1,-1.902892232E0,6.646663189E0,1.049252748E0,6.992857908E0
4.240545700E-1,-1.730608940E0,6.622136593E0,1.031306505E0,6.921798427E0
4.262343790E-1,-1.539781332E0,6.492924213E0,1.009771109E0,6.748972446E0
4.284538110E-1,-1.406381488E0,6.474380016E0,1.201795220E0,6.733484777E0
4.306444530E-1,-1.349551916E0,6.571887493E0,1.584646821E0,6.893627575E0
4.328295020E-1,-1.244267821E0,6.640082836E0,1.824527264E0,6.997699780E0
4.350402160E-1,-1.130010486E0,6.678966045E0,1.978266120E0,7.056844052E0
4.372298730E-1,-9.672985673E-1,6.760322094E0,2.108675003E0,7.147316392E0
4.394119000E-1,-8.093722463E-1,6.856633186E0,2.267199516E0,7.266959181E0
4.416287280E-1,-6.520441771E-1,7.010372162E0,2.449652195E0,7.454614365E0
4.438256580E-1,-5.276173949E-1,7.140182972E0,2.612364054E0,7.621354141E0
4.460316810E-1,-4.271188378E-1,7.269993305E0,2.756531715E0,7.786764428E0
4.482173610E-1,-3.122633696E-1,7.408777237E0,2.852244616E0,7.944985079E0
4.504130190E-1,-1.788634956E-1,7.537989616E0,2.958127022E0,8.099616971E0
4.526080990E-1,-2.093719877E-2,7.648657799E0,3.078366280E0,8.244922282E0
4.548041830E-1,1.417747438E-1,7.730013371E0,3.232105255E0,8.379720232E0
4.570003400E-1,2.943171859E-1,7.797610760E0,3.391227961E0,8.508218571E0
4.591963140E-1,4.570291340E-1,7.850851059E0,3.559323788E0,8.632121628E0
4.613935490E-1,6.287141442E-1,7.894520283E0,3.708875179E0,8.744969243E0
4.635916990E-1,7.956135273E-1,7.942376614E0,3.853640795E0,8.863684027E0
4.657867880E-1,9.726824164E-1,7.981259823E0,3.945764542E0,8.956320520E0
4.679809410E-1,1.168295622E0,8.043473244E0,4.028316975E0,9.071367820E0
4.701701800E-1,1.359721422E0,8.091329575E0,4.101297855E0,9.172736818E0
4.723475590E-1,1.593619823E0,8.157731056E0,4.155136585E0,9.292650869E0
4.745687500E-1,1.823330879E0,8.239086151E0,4.204787731E0,9.428006999E0
4.767582550E-1,2.053041935E0,8.315058708E0,4.225126743E0,9.550229238E0
4.789417050E-1,2.330011129E0,8.434102058E0,4.260420799E0,9.732122830E0
4.811583090E-1,2.626721144E0,8.544171333E0,4.300500393E0,9.919517698E0
4.833543850E-1,2.951546669E0,8.687142372E0,4.326223373E0,1.014368173E1
4.855563400E-1,3.310470104E0,8.844470978E0,4.375874519E0,1.040827349E1
4.877403710E-1,3.664009571E0,8.997013092E0,4.406980991E0,1.066736576E1
4.899088690E-1,4.037290096E0,9.158528328E0,4.413561344E0,1.093882426E1
4.920982510E-1,4.419543266E0,9.305686951E0,4.344169617E0,1.118033908E1
4.943086790E-1,4.821537495E0,9.443274498E0,4.269991875E0,1.143046314E1
4.965296370E-1,5.246861935E0,9.571290970E0,4.191627026E0,1.169225847E1
4.987209920E-1,5.715256691E0,9.699306488E0,4.108476639E0,1.198416813E1
5.009092760E-1,6.184250355E0,9.831509590E0,4.010969162E0,1.228785607E1
5.031201010E-1,6.671787739E0,9.964311600E0,3.903890133E0,1.261113062E1
5.053247320E-1,7.192824841E0,1.013001442E1,3.821337700E0,1.299832847E1
5.075146130E-1,7.738388538E0,1.031007481E1,3.685544968E0,1.340759268E1
5.097059460E-1,8.321639061E0,1.049970531E1,3.541377544E0,1.385766370E1
5.118991430E-1,8.919246674E0,1.070788097E1,3.382254839E0,1.434054825E1
5.140979650E-1,9.550951958E0,1.094955635E1,3.227917671E0,1.488398200E1
5.162947740E-1,1.016291618E1,1.117747307E1,3.083152056E0,1.541838500E1
5.184906050E-1,1.077009487E1,1.141017437E1,2.958127022E0,1.596676355E1
5.206856230E-1,1.133001518E1,1.167159081E1,2.860619545E0,1.651600497E1
5.228817990E-1,1.187976646E1,1.192343521E1,2.787040234E0,1.706061991E1
5.250714260E-1,1.237747288E1,1.218544960E1,2.732603550E0,1.758277961E1
5.272488140E-1,1.279860973E1,1.242293739E1,2.681756020E0,1.803678463E1
5.294702900E-1,1.324307728E1,1.263230896E1,2.602792740E0,1.848590965E1
5.316621340E-1,1.364985657E1,1.279860973E1,2.509472847E0,1.887910086E1
5.338495420E-1,1.405603886E1,1.293081379E1,2.397608280E0,1.924907008E1
5.360540410E-1,1.446760368E1,1.302532959E1,2.251646042E0,1.959695581E1
5.382315410E-1,1.484985733E1,1.305284786E1,2.149353027E0,1.988755436E1
5.404548180E-1,1.524646759E1,1.305105305E1,2.056631088E0,2.017460015E1
5.426457360E-1,1.562872124E1,1.303131199E1,2.040479422E0,2.045080869E1
5.448477620E-1,1.599183178E1,1.300678539E1,2.038684845E0,2.071403838E1
5.470385680E-1,1.636451340E1,1.297268772E1,2.032104731E0,2.098135780E1
5.492346540E-1,1.668934059E1,1.292901897E1,2.067996979E0,2.121250180E1
5.514318780E-1,1.699980927E1,1.285723400E1,2.118844509E0,2.141941837E1
5.536273240E-1,1.727259064E1,1.283749390E1,2.154138565E0,2.162831361E1
5.558223220E-1,1.749213219E1,1.281835079E1,2.246860504E0,2.180213723E1
5.580116210E-1,1.774038696E1,1.283809185E1,2.363510609E0,2.202553324E1
5.601890400E-1,1.795035744E1,1.290030479E1,2.513062000E0,2.224744202E1
5.624104050E-1,1.820399666E1,1.300618744E1,2.711068153E0,2.253655467E1
5.646065720E-1,1.845225143E1,1.314497089E1,2.889333248E0,2.283909126E1
5.668026160E-1,1.869631958E1,1.334178066E1,3.090928555E0,2.317561901E1
5.689986610E-1,1.892543221E1,1.355294704E1,3.245265722E0,2.350289572E1
5.711772100E-1,1.910250092E1,1.376830196E1,3.441477060E0,2.379738315E1
5.734072210E-1,1.925085640E1,1.400818157E1,3.643072367E0,2.408519461E1
5.755928490E-1,1.938964081E1,1.424806213E1,3.781856298E0,2.435709101E1
5.777827500E-1,1.952363777E1,1.450708580E1,3.948755503E0,2.464184734E1
5.799534250E-1,1.963849449E1,1.476072502E1,4.116253376E0,2.490969713E1
5.821749210E-1,1.974856377E1,1.501017666E1,4.283750534E0,2.517263778E1
5.843710470E-1,1.988256073E1,1.525962830E1,4.417150497E0,2.544963056E1
5.865741410E-1,1.998784637E1,1.544626808E1,4.584648132E0,2.567333634E1
5.887639100E-1,2.012662888E1,1.560479259E1,4.747958183E0,2.590625115E1
5.909581950E-1,2.030310059E1,1.573460388E1,4.911268711E0,2.615175354E1
5.931475160E-1,2.054716873E1,1.577767467E1,5.047060966E0,2.639306700E1
5.953304800E-1,2.079063797E1,1.581177235E1,5.187639713E0,2.663032816E1
5.975467070E-1,2.105803490E1,1.576810265E1,5.256433010E0,2.682729921E1
5.997436050E-1,2.132543373E1,1.565803337E1,5.288137913E0,2.697985425E1
6.019448290E-1,2.163590240E1,1.550907993E1,5.276772022E0,2.713831528E1
6.041326650E-1,2.196551323E1,1.531705570E1,5.241477966E0,2.728679274E1
6.063114970E-1,2.231366920E1,1.505324745E1,5.173282623E0,2.740917630E1
6.085270940E-1,2.263370895E1,1.477448368E1,5.062614441E0,2.749909479E1
6.107213080E-1,2.293460655E1,1.445324707E1,4.970490932E0,2.756081110E1
6.129183400E-1,2.319183540E1,1.412184143E1,4.863411903E0,2.758514836E1
6.151151170E-1,2.344009018E1,1.378624725E1,4.709074974E0,2.759843887E1
6.173113040E-1,2.368355942E1,1.347398472E1,4.511068821E0,2.761899695E1
6.195086210E-1,2.392224503E1,1.317069435E1,4.308277130E0,2.764601687E1
6.217046660E-1,2.415135765E1,1.285843086E1,4.053441525E0,2.765967659E1
6.238974750E-1,2.434218407E1,1.248814106E1,3.764508247E0,2.761642835E1
